Wavelength (nm),Absorbance
200.0,0.910
201.0,0.912
202.0,0.945
203.0,0.952
204.0,0.934
205.0,0.960
206.0,0.974
207.0,0.986
208.0,0.970
209.0,0.986
210.0,0.995
211.0,1.016
212.0,1.026
213.0,1.036
214.0,1.038
215.0,1.051
216.0,1.069
217.0,1.080
218.0,1.098
219.0,1.110
220.0,1.123
221.0,1.144
222.0,1.207
223.0,1.324
224.0,1.612
225.0,2.003
226.0,2.416
227.0,2.798
228.0,3.144
229.0,3.389
230.0,3.645
231.0,3.853
232.0,3.999
233.0,4.145
234.0,4.262
235.0,4.370
236.0,4.467
237.0,4.531
238.0,4.603
239.0,4.663
240.0,4.696
241.0,4.737
242.0,4.718
243.0,4.763
244.0,4.802
245.0,4.795
246.0,4.848
247.0,4.835
248.0,4.805
249.0,4.817
250.0,4.852
251.0,4.873
252.0,4.789
253.0,4.837
254.0,4.814
255.0,4.774
256.0,4.774
257.0,4.725
258.0,4.717
259.0,4.733
260.0,4.719
261.0,4.672
262.0,4.674
263.0,4.646
264.0,4.598
265.0,4.555
266.0,4.549
267.0,4.472
268.0,4.443
269.0,4.417
270.0,4.346
271.0,4.301
272.0,4.291
273.0,4.220
274.0,4.189
275.0,4.145
276.0,4.108
277.0,4.060
278.0,4.013
279.0,3.976
280.0,3.941
281.0,3.907
282.0,3.869
283.0,3.823
284.0,3.786
285.0,3.749
286.0,3.716
287.0,3.677
288.0,3.641
289.0,3.604
290.0,3.565
291.0,3.522
292.0,3.490
293.0,3.460
294.0,3.429
295.0,3.394
296.0,3.357
297.0,3.326
298.0,3.299
299.0,3.261
300.0,3.233
301.0,3.205
302.0,3.179
303.0,3.147
304.0,3.116
305.0,3.087
306.0,3.066
307.0,3.036
308.0,3.010
309.0,2.977
310.0,2.946
311.0,2.912
312.0,2.885
313.0,2.856
314.0,2.823
315.0,2.796
316.0,2.761
317.0,2.732
318.0,2.701
319.0,2.670
320.0,2.638
321.0,2.609
322.0,2.579
323.0,2.548
324.0,2.521
325.0,2.493
326.0,2.465
327.0,2.436
328.0,2.410
329.0,2.385
330.0,2.358
331.0,2.332
332.0,2.308
333.0,2.281
334.0,2.255
335.0,2.230
336.0,2.204
337.0,2.178
338.0,2.153
339.0,2.128
340.0,2.104
341.0,2.080
342.0,2.056
343.0,2.031
344.0,2.009
345.0,1.984
346.0,1.960
347.0,1.937
348.0,1.914
349.0,1.891
350.0,1.867
351.0,1.844
352.0,1.820
353.0,1.796
354.0,1.772
355.0,1.747
356.0,1.721
357.0,1.697
358.0,1.671
359.0,1.646
360.0,1.621
361.0,1.595
362.0,1.569
363.0,1.542
364.0,1.515
365.0,1.489
366.0,1.462
367.0,1.436
368.0,1.408
369.0,1.381
370.0,1.355
371.0,1.330
372.0,1.303
373.0,1.275
374.0,1.250
375.0,1.226
376.0,1.201
377.0,1.178
378.0,1.155
379.0,1.130
380.0,1.106
381.0,1.084
382.0,1.061
383.0,1.040
384.0,1.019
385.0,0.998
386.0,0.978
387.0,0.958
388.0,0.939
389.0,0.921
390.0,0.903
391.0,0.886
392.0,0.870
393.0,0.854
394.0,0.839
395.0,0.824
396.0,0.810
397.0,0.796
398.0,0.783
399.0,0.770
400.0,0.757
401.0,0.744
402.0,0.732
403.0,0.720
404.0,0.709
405.0,0.698
406.0,0.687
407.0,0.677
408.0,0.666
409.0,0.655
410.0,0.645
411.0,0.636
412.0,0.626
413.0,0.617
414.0,0.608
415.0,0.598
416.0,0.590
417.0,0.581
418.0,0.573
419.0,0.564
420.0,0.556
421.0,0.548
422.0,0.541
423.0,0.533
424.0,0.526
425.0,0.518
426.0,0.510
427.0,0.503
428.0,0.496
429.0,0.489
430.0,0.482
431.0,0.475
432.0,0.468
433.0,0.462
434.0,0.455
435.0,0.449
436.0,0.444
437.0,0.438
438.0,0.433
439.0,0.427
440.0,0.422
441.0,0.417
442.0,0.413
443.0,0.409
444.0,0.404
445.0,0.400
446.0,0.396
447.0,0.393
448.0,0.389
449.0,0.386
450.0,0.382
451.0,0.379
452.0,0.376
453.0,0.373
454.0,0.369
455.0,0.366
456.0,0.363
457.0,0.360
458.0,0.357
459.0,0.354
460.0,0.351
461.0,0.348
462.0,0.345
463.0,0.342
464.0,0.339
465.0,0.336
466.0,0.333
467.0,0.330
468.0,0.327
469.0,0.324
470.0,0.321
471.0,0.317
472.0,0.314
473.0,0.311
474.0,0.308
475.0,0.304
476.0,0.301
477.0,0.297
478.0,0.294
479.0,0.290
480.0,0.287
481.0,0.284
482.0,0.280
483.0,0.277
484.0,0.273
485.0,0.270
486.0,0.266
487.0,0.263
488.0,0.260
489.0,0.256
490.0,0.253
491.0,0.250
492.0,0.247
493.0,0.244
494.0,0.241
495.0,0.238
496.0,0.235
497.0,0.232
498.0,0.229
499.0,0.226
500.0,0.223
501.0,0.220
502.0,0.218
503.0,0.215
504.0,0.212
505.0,0.210
506.0,0.207
507.0,0.205
508.0,0.202
509.0,0.200
510.0,0.198
511.0,0.195
512.0,0.193
513.0,0.191
514.0,0.189
515.0,0.187
516.0,0.185
517.0,0.182
518.0,0.181
519.0,0.178
520.0,0.176
521.0,0.174
522.0,0.172
523.0,0.170
524.0,0.168
525.0,0.166
526.0,0.164
527.0,0.162
528.0,0.161
529.0,0.159
530.0,0.157
531.0,0.155
532.0,0.153
533.0,0.151
534.0,0.150
535.0,0.148
536.0,0.146
537.0,0.145
538.0,0.143
539.0,0.141
540.0,0.140
541.0,0.138
542.0,0.137
543.0,0.135
544.0,0.134
545.0,0.132
546.0,0.131
547.0,0.129
548.0,0.128
549.0,0.126
550.0,0.125
551.0,0.123
552.0,0.122
553.0,0.121
554.0,0.119
555.0,0.118
556.0,0.117
557.0,0.116
558.0,0.115
559.0,0.113
560.0,0.112
561.0,0.111
562.0,0.110
563.0,0.109
564.0,0.108
565.0,0.107
566.0,0.106
567.0,0.105
568.0,0.103
569.0,0.102
570.0,0.101
571.0,0.100
572.0,0.099
573.0,0.098
574.0,0.097
575.0,0.096
576.0,0.095
577.0,0.094
578.0,0.093
579.0,0.092
580.0,0.092
581.0,0.091
582.0,0.090
583.0,0.089
584.0,0.088
585.0,0.087
586.0,0.086
587.0,0.085
588.0,0.085
589.0,0.084
590.0,0.083
591.0,0.082
592.0,0.081
593.0,0.080
594.0,0.080
595.0,0.079
596.0,0.078
597.0,0.077
598.0,0.076
599.0,0.076
600.0,0.075
601.0,0.074
602.0,0.074
603.0,0.073
604.0,0.072
605.0,0.071
606.0,0.071
607.0,0.070
608.0,0.069
609.0,0.069
610.0,0.068
611.0,0.067
612.0,0.067
613.0,0.066
614.0,0.065
615.0,0.065
616.0,0.064
617.0,0.064
618.0,0.063
619.0,0.062
620.0,0.062
621.0,0.061
622.0,0.061
623.0,0.060
624.0,0.059
625.0,0.059
626.0,0.058
627.0,0.058
628.0,0.057
629.0,0.057
630.0,0.056
631.0,0.056
632.0,0.055
633.0,0.055
634.0,0.054
635.0,0.053
636.0,0.053
637.0,0.052
638.0,0.052
639.0,0.052
640.0,0.051
641.0,0.050
642.0,0.050
643.0,0.050
644.0,0.049
645.0,0.049
646.0,0.048
647.0,0.048
648.0,0.047
649.0,0.047
650.0,0.046
651.0,0.046
652.0,0.046
653.0,0.045
654.0,0.045
655.0,0.044
656.0,0.044
657.0,0.044
658.0,0.043
659.0,0.043
660.0,0.043
661.0,0.042
662.0,0.042
663.0,0.041
664.0,0.041
665.0,0.041
666.0,0.040
667.0,0.040
668.0,0.040
669.0,0.039
670.0,0.039
671.0,0.038
672.0,0.038
673.0,0.038
674.0,0.038
675.0,0.037
676.0,0.037
677.0,0.036
678.0,0.036
679.0,0.036
680.0,0.035
681.0,0.035
682.0,0.035
683.0,0.035
684.0,0.034
685.0,0.034
686.0,0.034
687.0,0.033
688.0,0.033
689.0,0.033
690.0,0.033
691.0,0.032
692.0,0.032
693.0,0.032
694.0,0.032
695.0,0.031
696.0,0.031
697.0,0.031
698.0,0.030
699.0,0.030
700.0,0.030
701.0,0.030
702.0,0.029
703.0,0.029
704.0,0.029
705.0,0.029
706.0,0.028
707.0,0.028
708.0,0.028
709.0,0.028
710.0,0.028
711.0,0.027
712.0,0.027
713.0,0.027
714.0,0.027
715.0,0.027
716.0,0.026
717.0,0.026
718.0,0.026
719.0,0.026
720.0,0.026
721.0,0.025
722.0,0.025
723.0,0.025
724.0,0.025
725.0,0.025
726.0,0.024
727.0,0.024
728.0,0.024
729.0,0.024
730.0,0.024
731.0,0.024
732.0,0.023
733.0,0.023
734.0,0.023
735.0,0.023
736.0,0.023
737.0,0.023
738.0,0.023
739.0,0.022
740.0,0.022
741.0,0.022
742.0,0.022
743.0,0.022
744.0,0.022
745.0,0.021
746.0,0.021
747.0,0.021
748.0,0.021
749.0,0.021
750.0,0.021
751.0,0.021
752.0,0.020
753.0,0.020
754.0,0.020
755.0,0.020
756.0,0.020
757.0,0.020
758.0,0.020
759.0,0.020
760.0,0.019
761.0,0.019
762.0,0.019
763.0,0.019
764.0,0.019
765.0,0.019
766.0,0.018
767.0,0.018
768.0,0.018
769.0,0.018
770.0,0.018
771.0,0.018
772.0,0.018
773.0,0.018
774.0,0.018
775.0,0.017
776.0,0.017
777.0,0.017
778.0,0.017
779.0,0.017
780.0,0.017
781.0,0.017
782.0,0.017
783.0,0.017
784.0,0.017
785.0,0.016
786.0,0.016
787.0,0.016
788.0,0.016
789.0,0.016
790.0,0.016
791.0,0.016
792.0,0.016
793.0,0.016
794.0,0.016
795.0,0.016
796.0,0.016
797.0,0.015
798.0,0.015
799.0,0.015
800.0,0.015
