Wavelength (nm),Absorbance
200.0,0.952
201.0,0.954
202.0,0.991
203.0,0.978
204.0,0.982
205.0,0.988
206.0,1.027
207.0,1.034
208.0,1.032
209.0,1.030
210.0,1.043
211.0,1.057
212.0,1.076
213.0,1.084
214.0,1.084
215.0,1.101
216.0,1.113
217.0,1.142
218.0,1.153
219.0,1.157
220.0,1.189
221.0,1.186
222.0,1.263
223.0,1.388
224.0,1.693
225.0,2.069
226.0,2.498
227.0,2.878
228.0,3.184
229.0,3.469
230.0,3.698
231.0,3.891
232.0,4.074
233.0,4.223
234.0,4.318
235.0,4.425
236.0,4.503
237.0,4.582
238.0,4.606
239.0,4.681
240.0,4.731
241.0,4.784
242.0,4.750
243.0,4.751
244.0,4.812
245.0,4.822
246.0,4.819
247.0,4.820
248.0,4.766
249.0,4.772
250.0,4.797
251.0,4.729
252.0,4.745
253.0,4.745
254.0,4.709
255.0,4.717
256.0,4.718
257.0,4.731
258.0,4.705
259.0,4.671
260.0,4.666
261.0,4.633
262.0,4.639
263.0,4.622
264.0,4.604
265.0,4.612
266.0,4.611
267.0,4.592
268.0,4.566
269.0,4.540
270.0,4.507
271.0,4.519
272.0,4.469
273.0,4.464
274.0,4.451
275.0,4.437
276.0,4.391
277.0,4.388
278.0,4.371
279.0,4.358
280.0,4.327
281.0,4.313
282.0,4.256
283.0,4.247
284.0,4.236
285.0,4.170
286.0,4.168
287.0,4.144
288.0,4.093
289.0,4.075
290.0,4.054
291.0,4.018
292.0,3.982
293.0,3.958
294.0,3.920
295.0,3.895
296.0,3.858
297.0,3.829
298.0,3.794
299.0,3.763
300.0,3.726
301.0,3.710
302.0,3.667
303.0,3.626
304.0,3.590
305.0,3.551
306.0,3.549
307.0,3.504
308.0,3.464
309.0,3.429
310.0,3.393
311.0,3.348
312.0,3.310
313.0,3.268
314.0,3.232
315.0,3.191
316.0,3.152
317.0,3.113
318.0,3.073
319.0,3.035
320.0,2.999
321.0,2.964
322.0,2.925
323.0,2.886
324.0,2.855
325.0,2.823
326.0,2.791
327.0,2.759
328.0,2.727
329.0,2.702
330.0,2.673
331.0,2.645
332.0,2.617
333.0,2.587
334.0,2.560
335.0,2.535
336.0,2.509
337.0,2.484
338.0,2.458
339.0,2.434
340.0,2.410
341.0,2.386
342.0,2.362
343.0,2.339
344.0,2.316
345.0,2.292
346.0,2.270
347.0,2.247
348.0,2.225
349.0,2.201
350.0,2.179
351.0,2.156
352.0,2.132
353.0,2.107
354.0,2.082
355.0,2.057
356.0,2.030
357.0,2.004
358.0,1.977
359.0,1.950
360.0,1.922
361.0,1.894
362.0,1.864
363.0,1.833
364.0,1.803
365.0,1.772
366.0,1.741
367.0,1.710
368.0,1.678
369.0,1.646
370.0,1.614
371.0,1.584
372.0,1.552
373.0,1.519
374.0,1.489
375.0,1.460
376.0,1.431
377.0,1.403
378.0,1.375
379.0,1.346
380.0,1.318
381.0,1.292
382.0,1.265
383.0,1.240
384.0,1.216
385.0,1.193
386.0,1.170
387.0,1.147
388.0,1.126
389.0,1.105
390.0,1.086
391.0,1.067
392.0,1.050
393.0,1.032
394.0,1.016
395.0,1.000
396.0,0.985
397.0,0.971
398.0,0.957
399.0,0.943
400.0,0.929
401.0,0.916
402.0,0.903
403.0,0.890
404.0,0.878
405.0,0.866
406.0,0.854
407.0,0.843
408.0,0.831
409.0,0.819
410.0,0.808
411.0,0.797
412.0,0.786
413.0,0.775
414.0,0.765
415.0,0.754
416.0,0.743
417.0,0.733
418.0,0.722
419.0,0.712
420.0,0.702
421.0,0.692
422.0,0.682
423.0,0.672
424.0,0.662
425.0,0.652
426.0,0.642
427.0,0.632
428.0,0.622
429.0,0.613
430.0,0.604
431.0,0.594
432.0,0.586
433.0,0.577
434.0,0.568
435.0,0.561
436.0,0.553
437.0,0.546
438.0,0.539
439.0,0.532
440.0,0.526
441.0,0.520
442.0,0.515
443.0,0.509
444.0,0.504
445.0,0.500
446.0,0.495
447.0,0.491
448.0,0.487
449.0,0.483
450.0,0.480
451.0,0.477
452.0,0.473
453.0,0.470
454.0,0.467
455.0,0.465
456.0,0.462
457.0,0.459
458.0,0.457
459.0,0.454
460.0,0.451
461.0,0.448
462.0,0.446
463.0,0.443
464.0,0.440
465.0,0.437
466.0,0.434
467.0,0.431
468.0,0.428
469.0,0.425
470.0,0.422
471.0,0.418
472.0,0.415
473.0,0.411
474.0,0.407
475.0,0.403
476.0,0.400
477.0,0.395
478.0,0.392
479.0,0.387
480.0,0.383
481.0,0.379
482.0,0.375
483.0,0.370
484.0,0.366
485.0,0.362
486.0,0.358
487.0,0.354
488.0,0.349
489.0,0.345
490.0,0.341
491.0,0.337
492.0,0.333
493.0,0.329
494.0,0.325
495.0,0.321
496.0,0.317
497.0,0.313
498.0,0.309
499.0,0.306
500.0,0.302
501.0,0.299
502.0,0.295
503.0,0.292
504.0,0.288
505.0,0.285
506.0,0.282
507.0,0.279
508.0,0.276
509.0,0.273
510.0,0.270
511.0,0.267
512.0,0.264
513.0,0.261
514.0,0.259
515.0,0.256
516.0,0.253
517.0,0.251
518.0,0.248
519.0,0.246
520.0,0.243
521.0,0.240
522.0,0.238
523.0,0.235
524.0,0.233
525.0,0.230
526.0,0.227
527.0,0.225
528.0,0.223
529.0,0.220
530.0,0.218
531.0,0.216
532.0,0.213
533.0,0.211
534.0,0.209
535.0,0.207
536.0,0.204
537.0,0.202
538.0,0.200
539.0,0.198
540.0,0.195
541.0,0.193
542.0,0.191
543.0,0.189
544.0,0.187
545.0,0.185
546.0,0.183
547.0,0.181
548.0,0.180
549.0,0.178
550.0,0.176
551.0,0.174
552.0,0.172
553.0,0.170
554.0,0.169
555.0,0.167
556.0,0.166
557.0,0.164
558.0,0.162
559.0,0.161
560.0,0.159
561.0,0.158
562.0,0.156
563.0,0.155
564.0,0.153
565.0,0.152
566.0,0.151
567.0,0.149
568.0,0.148
569.0,0.147
570.0,0.145
571.0,0.144
572.0,0.142
573.0,0.141
574.0,0.140
575.0,0.139
576.0,0.138
577.0,0.136
578.0,0.135
579.0,0.134
580.0,0.133
581.0,0.132
582.0,0.131
583.0,0.130
584.0,0.128
585.0,0.127
586.0,0.126
587.0,0.125
588.0,0.124
589.0,0.123
590.0,0.122
591.0,0.121
592.0,0.120
593.0,0.119
594.0,0.118
595.0,0.117
596.0,0.116
597.0,0.115
598.0,0.114
599.0,0.113
600.0,0.112
601.0,0.111
602.0,0.110
603.0,0.110
604.0,0.108
605.0,0.108
606.0,0.107
607.0,0.106
608.0,0.105
609.0,0.104
610.0,0.103
611.0,0.102
612.0,0.101
613.0,0.101
614.0,0.100
615.0,0.099
616.0,0.098
617.0,0.097
618.0,0.096
619.0,0.096
620.0,0.095
621.0,0.094
622.0,0.093
623.0,0.092
624.0,0.092
625.0,0.091
626.0,0.090
627.0,0.090
628.0,0.089
629.0,0.088
630.0,0.087
631.0,0.087
632.0,0.086
633.0,0.085
634.0,0.084
635.0,0.084
636.0,0.083
637.0,0.082
638.0,0.082
639.0,0.081
640.0,0.080
641.0,0.080
642.0,0.079
643.0,0.078
644.0,0.078
645.0,0.077
646.0,0.077
647.0,0.076
648.0,0.075
649.0,0.075
650.0,0.074
651.0,0.074
652.0,0.073
653.0,0.072
654.0,0.072
655.0,0.071
656.0,0.071
657.0,0.070
658.0,0.070
659.0,0.069
660.0,0.068
661.0,0.068
662.0,0.067
663.0,0.067
664.0,0.066
665.0,0.066
666.0,0.065
667.0,0.065
668.0,0.064
669.0,0.064
670.0,0.063
671.0,0.063
672.0,0.062
673.0,0.062
674.0,0.062
675.0,0.061
676.0,0.061
677.0,0.060
678.0,0.060
679.0,0.059
680.0,0.058
681.0,0.058
682.0,0.058
683.0,0.057
684.0,0.057
685.0,0.056
686.0,0.056
687.0,0.056
688.0,0.055
689.0,0.055
690.0,0.054
691.0,0.054
692.0,0.054
693.0,0.053
694.0,0.053
695.0,0.053
696.0,0.052
697.0,0.052
698.0,0.051
699.0,0.051
700.0,0.051
701.0,0.050
702.0,0.050
703.0,0.050
704.0,0.049
705.0,0.049
706.0,0.048
707.0,0.048
708.0,0.048
709.0,0.047
710.0,0.047
711.0,0.047
712.0,0.046
713.0,0.046
714.0,0.046
715.0,0.046
716.0,0.045
717.0,0.045
718.0,0.045
719.0,0.044
720.0,0.044
721.0,0.044
722.0,0.043
723.0,0.043
724.0,0.043
725.0,0.042
726.0,0.042
727.0,0.042
728.0,0.042
729.0,0.041
730.0,0.041
731.0,0.041
732.0,0.041
733.0,0.040
734.0,0.040
735.0,0.040
736.0,0.040
737.0,0.039
738.0,0.039
739.0,0.039
740.0,0.038
741.0,0.038
742.0,0.038
743.0,0.038
744.0,0.038
745.0,0.037
746.0,0.037
747.0,0.037
748.0,0.036
749.0,0.036
750.0,0.036
751.0,0.036
752.0,0.036
753.0,0.035
754.0,0.035
755.0,0.035
756.0,0.035
757.0,0.035
758.0,0.034
759.0,0.034
760.0,0.034
761.0,0.034
762.0,0.033
763.0,0.033
764.0,0.033
765.0,0.033
766.0,0.033
767.0,0.033
768.0,0.032
769.0,0.032
770.0,0.032
771.0,0.032
772.0,0.032
773.0,0.032
774.0,0.031
775.0,0.031
776.0,0.031
777.0,0.031
778.0,0.031
779.0,0.030
780.0,0.030
781.0,0.030
782.0,0.030
783.0,0.030
784.0,0.030
785.0,0.029
786.0,0.029
787.0,0.029
788.0,0.029
789.0,0.029
790.0,0.029
791.0,0.029
792.0,0.029
793.0,0.028
794.0,0.028
795.0,0.028
796.0,0.028
797.0,0.028
798.0,0.028
799.0,0.027
800.0,0.027
